Clock Time (s),Elapsed Time (s),ax,ay,az,gx,gy,gz,mr,mtheta,mphi,
71633.6,0.0,-0.42,-0.60,0.65,0.00,-0.02,-0.00,42.397063577563955,0.4399221151653518,1.8975950163329605,
71633.7,0.09999999999126885,-0.42,-0.60,0.65,-0.01,0.07,0.01,42.538243969397705,0.4461641472713309,1.9066611264187785,
71633.8,0.19999999999708962,-0.41,-0.60,0.65,-0.01,-0.02,0.01,43.181751932963536,0.47187696059231454,1.9436497096006364,
71633.9,0.29999999998835847,-0.41,-0.61,0.65,-0.00,-0.01,0.01,41.166290821496176,0.46901224193353597,1.8826300308401593,
71634.1,0.5,-0.42,-0.60,0.65,-0.00,0.01,-0.00,41.4011038500183,0.47685763893395117,1.9178063226778024,
71634.2,0.5999999999912689,-0.42,-0.60,0.66,-0.00,0.00,0.00,41.447675447484386,0.4422174585948969,1.8829765744667115,
71634.3,0.6999999999970896,-0.42,-0.60,0.65,-0.00,0.00,0.00,41.82578152288371,0.472875346174166,1.8878510386567615,
71634.4,0.7999999999883585,-0.41,-0.60,0.64,-0.00,0.01,0.00,41.236538409522204,0.47532607896773527,1.9249320350040084,
71634.5,0.8999999999941792,-0.42,-0.60,0.65,-0.00,0.01,0.00,40.908886565146204,0.48554612517890194,1.8928940885614765,
71634.6,1.0,-0.42,-0.60,0.65,-0.00,0.02,-0.00,41.46744506236187,0.46789752598192275,1.9221034318611911,
71634.7,1.0999999999912689,-0.42,-0.60,0.64,-0.00,0.02,0.00,41.667432126302195,0.4591843747328187,1.9252026282296968,
71634.8,1.1999999999970896,-0.42,-0.60,0.65,-0.01,-0.00,0.00,41.556590331739194,0.4891633189299517,1.9044582831882122,
71634.9,1.2999999999883585,-0.42,-0.60,0.65,-0.00,0.02,0.00,41.41075464175943,0.48503777936744874,1.906446397564875,
71635.1,1.5,-0.42,-0.60,0.64,-0.01,-0.01,-0.01,41.63034950609951,0.4757502379740805,1.9163261259713016,
71635.2,1.5999999999912689,-0.42,-0.60,0.65,-0.01,-0.00,-0.00,40.89029469201708,0.4432866203829598,1.867881694405573,
71635.3,1.6999999999970896,-0.42,-0.60,0.66,-0.01,-0.01,-0.00,41.52161485298952,0.47216045670532897,1.8917780828691548,
71635.4,1.7999999999883585,-0.42,-0.60,0.65,-0.01,-0.01,-0.00,41.53354066293891,0.4585686459013318,1.875235026313192,
71635.5,1.8999999999941792,-0.42,-0.61,0.65,-0.01,-0.02,-0.00,41.82430633017122,0.49237210060040265,1.8903800399020119,
71635.6,2.0,-0.42,-0.60,0.65,0.38,-0.75,0.21,40.911159846672646,0.523629948830565,1.9569950475554871,
71635.7,2.099999999991269,-0.41,-0.61,0.66,-0.02,-0.03,0.00,41.82572653284101,0.5001073147962068,1.8775518993001783,
71635.8,2.1999999999970896,-0.33,-0.48,0.95,1.14,-0.78,0.35,41.32687503308229,0.3714568503985817,2.0984950201530834,
71635.9,2.2999999999883585,-0.41,-0.60,0.66,-0.02,-0.03,0.00,41.733976565862974,0.4894220899087645,1.8946328054668062,
71636.1,2.5,-0.20,-0.24,1.05,1.38,-0.80,-0.06,40.79200166699349,0.18963292626126874,2.2850191414446135,
71636.2,2.599999999991269,-0.18,-0.23,1.06,1.19,-1.21,-0.31,42.78353655321168,0.12745032102111956,2.3627434083115144,
71636.3,2.6999999999970896,-0.21,-0.26,1.05,0.98,-0.69,-0.31,43.38383685198902,5.932446809184049,2.6174637474489915,
71636.4,2.7999999999883585,-0.14,-0.20,1.06,0.77,-0.33,-0.35,40.61459959177241,0.19542793306511913,2.2771020044731323,
71636.5,2.8999999999941792,-0.20,-0.25,1.05,1.33,-1.03,0.11,42.04372604800864,0.11372388327515627,2.3748906038167052,
71636.6,3.0,-0.13,-0.17,1.04,1.34,-1.06,0.12,43.64987743396309,5.633988221323468,2.5819126775223276,
71636.7,3.099999999991269,0.11,0.30,0.78,1.33,-1.04,0.11,43.424999712147375,5.583431088042653,2.577183897709034,
71636.8,3.1999999999970896,-0.11,-0.13,1.03,1.39,-0.86,0.01,42.46062057954405,0.01501168808485839,2.4428484789666327,
71636.9,3.2999999999883585,-0.12,-0.10,1.03,1.40,-0.84,-0.01,42.51878290826302,0.0044214892415731875,2.44928874090583,
71637.1,3.5,0.18,0.45,0.85,0.08,0.20,-0.00,45.422863185845074,5.58002323871221,2.515980844154085,
71637.2,3.599999999991269,0.18,0.43,0.91,0.01,0.24,-0.07,44.42707620359458,5.6145864345448615,2.49690473326887,
71637.3,3.6999999999970896,0.17,0.45,0.87,0.06,0.15,0.04,43.304958145690435,5.581490110248053,2.493718082586008,
71637.4,3.7999999999883585,0.14,0.41,0.93,0.05,0.24,-0.04,45.132633426380075,5.54401377071258,2.5064056975586784,
71637.5,3.8999999999941792,0.13,0.39,0.87,0.07,0.33,-0.04,43.11552040738926,5.465892243547984,2.534044342154223,
71637.6,4.0,0.13,0.39,0.87,0.07,0.33,-0.04,44.930712213362476,5.5581343281100875,2.507627276715034,
71637.7,4.099999999991269,0.14,0.39,0.84,0.08,0.29,-0.04,44.358021822439284,5.473171896521634,2.487035498228349,
71637.8,4.19999999999709,0.14,0.39,0.86,0.07,0.25,-0.03,44.78725041794819,5.569171023193039,2.5119971306208186,
71637.9,4.2999999999883585,0.12,0.41,0.85,0.08,0.23,-0.02,43.76826018931984,5.361327091228212,2.563658991533401,
71638.1,4.5,0.36,0.43,0.92,-0.06,0.45,-0.08,43.31621520862597,5.309349097648369,2.584210811330903,
71638.2,4.599999999991269,0.30,0.40,0.93,-0.32,0.37,0.73,45.796247662881726,5.482073403214864,2.5110506921497002,
71638.3,4.69999999999709,0.29,0.41,0.94,-0.04,0.52,-0.07,44.24093692497933,5.293031678216076,2.5952150112159673,
71638.4,4.7999999999883585,0.28,0.42,0.94,0.02,0.78,-0.01,44.272630371370525,5.292651800404105,2.58756524539125,
71638.5,4.899999999994179,0.26,0.42,0.89,0.06,1.02,0.04,44.03562307950235,5.699599636038796,2.5346233745172735,
71638.6,5.0,0.35,0.42,0.93,0.05,1.12,0.08,44.34311445985724,5.291248320212321,2.5706525873432624,
71638.7,5.099999999991269,0.25,0.44,0.77,0.01,1.17,0.12,43.82678747067825,5.339131881595737,2.5721080707992856,
71638.8,5.19999999999709,0.25,0.45,0.74,-0.05,1.20,0.14,44.17913874217106,6.236751009715657,2.498343931337262,
71638.9,5.2999999999883585,0.23,0.43,0.66,-0.09,1.22,0.17,43.33126469421358,5.388868702371338,2.5724214000898016,
71639.1,5.5,-0.25,-0.27,0.86,-0.63,0.33,-0.09,42.29157126426021,0.14423035378895965,2.300702257116298,
71639.2,5.599999999991269,-0.25,-0.28,0.84,-0.84,0.82,-0.14,41.553960100091544,0.10367720106692685,2.3760266277329656,
71639.3,5.69999999999709,-0.26,-0.28,0.84,-0.45,0.63,-0.10,41.6408813547456,0.10349363981376329,2.366622804369668,
71639.4,5.7999999999883585,-0.27,-0.28,0.83,-0.53,0.56,-0.06,42.058365398574395,0.10265623858842998,2.325400668630608,
71639.5,5.899999999994179,-0.26,-0.29,0.82,-0.57,0.49,-0.06,42.060961710355606,0.40572884981560553,2.1106562325672313,
71639.6,6.0,-0.24,-0.26,0.88,-0.58,0.43,-0.06,41.38393045615653,0.16065736562293179,2.3172062044734276,
71639.7,6.099999999991269,-0.06,-0.51,0.72,-0.59,0.41,-0.07,42.248853238875014,0.10618431228309592,2.3644480212631636,
71639.8,6.19999999999709,-0.25,-0.32,0.82,-0.59,0.38,-0.07,41.150880914021755,0.1824500535156467,2.3135131636107547,
71639.9,6.2999999999883585,-0.24,-0.27,0.87,-0.61,0.34,-0.09,41.79309751621672,0.15873170991511787,2.3059281140836703,
71640.1,6.5,-0.32,-0.63,0.73,-0.05,-0.17,0.03,40.83581393825768,0.495526935400314,1.914741698781117,
71640.2,6.599999999991269,-0.42,-0.58,0.65,-0.14,-0.05,0.18,41.599799278361914,0.5034576536068138,1.910974919634741,
71640.3,6.69999999999709,-0.41,-0.60,0.67,-0.11,-0.16,0.10,42.87832319482654,0.5147337882878522,1.9261920303728879,
71640.4,6.7999999999883585,-0.42,-0.56,0.64,-0.10,-0.20,0.09,43.24858494794945,0.5195708328448969,1.9028891614221413,
71640.5,6.899999999994179,-0.37,-0.61,0.69,-0.08,-0.21,0.08,41.44868876092464,0.47941130257597886,1.8837293225505587,
71640.6,7.0,-0.36,-0.62,0.69,-0.21,-0.33,0.21,42.71274517049917,0.5107210684946464,1.8950909490032584,
71640.7,7.099999999991269,-0.34,-0.61,0.69,-0.05,-0.24,0.23,42.71274517049917,0.5107210684946464,1.8950909490032584,
71640.8,7.19999999999709,-0.33,-0.62,0.69,-0.07,-0.20,0.08,41.54904331028574,0.5122086008127167,1.9119180646051188,
71640.9,7.2999999999883585,-0.32,-0.62,0.72,-0.06,-0.18,0.04,42.413985900879446,0.4680335457895982,1.925980071390233,
71641.1,7.5,-0.44,-0.55,0.67,0.05,0.18,0.02,41.49263790119881,0.4851855750958137,1.930879062124484,
71641.2,7.599999999991269,-0.43,-0.55,0.67,0.11,0.21,0.02,42.026480937618366,0.5024090333876507,1.929402262064797,
71641.3,7.69999999999709,-0.44,-0.56,0.68,0.05,0.18,0.00,42.776850047660126,0.4983094588612757,1.8776203611104412,
71641.4,7.7999999999883585,-0.44,-0.56,0.67,0.05,0.17,0.00,43.02994422492318,0.4460764732594064,1.9174616437516943,
71641.5,7.899999999994179,-0.44,-0.55,0.67,0.06,0.18,0.00,43.28438748555881,0.43302477379549814,1.9146025880136397,
71641.6,8.0,-0.45,-0.55,0.66,0.04,0.20,0.01,41.987103972529475,0.4445595289641418,1.8926099437135135,
71641.7,8.099999999991269,-0.47,-0.56,0.67,0.05,0.19,0.02,42.62720844718781,0.4444823764395939,1.8615468870455734,
71641.8,8.19999999999709,-0.45,-0.56,0.66,-0.04,-0.05,0.01,42.544269884439196,0.4623006572954651,1.929107886097974,
71641.9,8.299999999988358,-0.44,-0.56,0.66,-0.03,-0.04,0.01,41.464854997937714,0.3958608876382064,1.8760083893593797,
71642.1,8.5,-0.45,-0.57,0.66,-0.02,-0.02,0.01,40.70403665485771,0.4563144847164382,1.9072994700436186,
71642.2,8.599999999991269,-0.45,-0.57,0.66,-0.02,-0.02,0.00,41.664105654627946,0.4322135596755257,1.8901355887647917,
71642.3,8.69999999999709,-0.45,-0.56,0.66,-0.02,-0.01,0.01,40.87925879954283,0.44372582032722063,1.8700116766611488,
71642.4,8.799999999988358,-0.46,-0.57,0.66,-0.02,0.00,0.00,43.38532701271249,0.41756765100838183,1.8464872635480043,
71642.5,8.89999999999418,-0.45,-0.57,0.66,-0.02,-0.00,0.00,41.17848224497838,0.450786947722365,1.8743806525295117,
71642.6,9.0,-0.45,-0.57,0.66,-0.03,-0.03,-0.00,40.964434574396364,0.44150005487344823,1.8673276607801537,
71642.7,9.099999999991269,-0.45,-0.57,0.67,-0.02,0.00,0.00,41.91874759579537,0.421333049282259,1.8603791303674677,
71642.8,9.19999999999709,-0.45,-0.57,0.67,0.00,-0.00,0.01,42.865129184454815,0.4679182794889323,1.879415562775945,
71642.9,9.299999999988358,-0.45,-0.56,0.67,-0.01,0.00,0.00,41.605021331565254,0.4661360101534984,1.8873154670147516,
71643.1,9.5,-0.45,-0.56,0.67,-0.01,0.01,-0.00,40.63912031528242,0.4463682229589016,1.870804537335131,
71643.2,9.599999999991269,-0.45,-0.56,0.66,-0.01,0.01,-0.00,41.39257662914934,0.449252022684245,1.852076777100056,
71643.3,9.69999999999709,-0.45,-0.56,0.66,-0.01,0.01,-0.00,42.57587344964281,0.43584929908785447,1.892951123354593,
71643.4,9.799999999988358,-0.45,-0.56,0.66,-0.01,0.00,-0.00,41.81901600946632,0.4655500238946395,1.8698361921207682,
71643.5,9.89999999999418,-0.46,-0.57,0.66,-0.01,0.01,0.00,41.421415958414556,0.43750604325080467,1.9012475112146856,
71643.6,10.0,-0.46,-0.57,0.66,-0.01,0.01,0.00,43.20061689374354,0.44977466424382956,1.871362020394303,
71643.7,10.099999999991269,-0.46,-0.57,0.66,-0.01,-0.01,0.01,42.24500917268216,0.46054546960541876,1.8701954181974487,
71643.8,10.19999999999709,-0.46,-0.57,0.66,-0.01,-0.01,0.01,42.69961709430191,0.4528976940173748,1.8725471315856246,
71643.9,10.299999999988358,-0.45,-0.56,0.65,-0.01,-0.01,0.01,41.636200595155174,0.36291397055741587,1.842150167465554,
71644.1,10.5,-0.73,-0.47,1.02,1.76,-1.96,1.46,42.71420957948303,0.3542656824987588,1.8509348632585836,
71644.2,10.599999999991269,-0.71,-0.46,1.03,1.79,-2.03,1.44,42.764505141530634,0.308524433595219,1.9043197329384205,
71644.3,10.69999999999709,-0.71,-0.46,1.02,1.67,-1.60,1.46,42.800081775622814,0.2995389633244624,1.9146831542174925,
71644.4,10.799999999988358,-0.70,-0.45,1.02,1.68,-1.65,1.46,41.34814747966346,0.20142635591873753,1.9482747319741098,
71644.5,10.89999999999418,-0.69,-0.45,1.02,1.69,-1.71,1.47,41.392581460933314,0.19590754206569003,1.9647965587643825,
71644.6,11.0,-0.69,-0.44,1.03,1.71,-1.81,1.47,41.45783761847692,0.059476874014837436,2.0977708008751033,
71644.7,11.099999999991269,-0.68,-0.43,1.02,1.73,-1.86,1.47,43.404867238594335,5.5352586977783735,2.2966182749042967,
71644.8,11.19999999999709,-0.66,-0.42,1.02,-0.05,0.23,-0.13,41.96274657359787,0.017384675785325467,2.1257405808889547,
71644.9,11.299999999988358,-0.64,-0.41,1.01,1.96,-2.03,1.30,41.99977261843211,6.2425835525282105,2.1983249691233215,
71645.1,11.5,-0.11,0.50,0.93,-0.01,0.03,-0.11,44.80597058428709,5.535887847480703,2.377487801897109,
71645.2,11.599999999991269,0.06,0.49,0.85,-0.13,-0.31,-0.10,44.36952219711184,5.56610055810808,2.34245563789413,
71645.3,11.69999999999709,0.24,0.44,0.85,-0.19,0.00,-0.10,44.83637920260734,5.507177669577368,2.427421512661262,
71645.4,11.799999999988358,0.06,0.49,0.85,-0.16,-0.25,-0.16,43.782674655621484,5.506884163648956,2.376788937569424,
71645.5,11.89999999999418,0.02,0.48,1.01,-0.13,-0.21,-0.17,43.60127177044266,5.628456136562731,2.373841604078762,
71645.6,12.0,-0.03,0.49,1.01,-0.07,-0.11,-0.17,44.23672230172575,5.552032516851723,2.3555525522777163,
71645.7,12.099999999991269,-0.02,0.22,0.54,-0.66,-0.23,1.17,44.51046281493824,5.624507240348782,2.342823019552926,
71645.8,12.19999999999709,-0.06,0.49,0.99,-0.04,-0.05,-0.15,44.51450325455739,5.555858484387035,2.428561667423344,
71645.9,12.299999999988358,-0.10,0.50,0.95,-1.83,-0.45,0.61,44.59085668609654,5.537508945463639,2.3789576398193257,
71646.1,12.5,-0.01,-0.19,0.96,-1.06,1.70,-0.24,42.26960491890124,5.6947347418880545,2.6866390182737323,
71646.2,12.599999999991269,-0.23,-0.32,0.86,-0.98,1.77,-0.45,43.03907759234624,5.763438512233767,2.6951089572544773,
71646.3,12.69999999999709,0.21,-0.00,1.07,-1.28,0.45,0.15,42.184529154655735,0.13154830223135391,2.245765991230903,
71646.4,12.799999999988358,0.17,-0.08,1.08,-1.15,1.10,0.02,43.62693663323154,5.812343577688488,2.699898212960904,
71646.5,12.89999999999418,0.14,-0.05,1.06,-1.15,1.28,-0.03,42.19802602018251,5.87894725799902,2.698889010738819,
71646.6,13.0,0.10,-0.07,1.06,-1.14,1.53,-0.14,42.08348250798643,0.48160700953165736,1.9497826212868363,
71646.7,13.099999999991269,-0.37,-0.68,0.59,0.24,0.50,-0.19,41.25688063826445,0.47546268857739865,1.9562043841637127,
71646.8,13.19999999999709,0.06,-0.10,1.02,0.11,0.19,0.06,41.76931170129573,6.0175404224956415,2.6752963474841183,
71646.9,13.299999999988358,0.02,-0.14,1.01,-1.09,1.68,-0.21,42.2547938108802,0.44632260993413403,1.9165400242118544,
71647.1,13.5,-0.54,-0.52,0.61,-0.04,-0.13,0.00,41.9976106463213,0.42345212019251444,1.8476691209486689,
71647.2,13.599999999991269,-0.53,-0.53,0.62,-0.04,-0.03,-0.01,42.77183185228335,0.42573550504038216,1.873735871831991,
71647.3,13.69999999999709,-0.48,-0.56,0.65,-0.01,-0.00,0.03,40.83694528242778,0.44411351970580837,1.8387008350652476,
71647.4,13.799999999988358,-0.55,-0.53,0.60,-0.00,0.02,0.00,42.11801870933627,0.41799855630960364,1.8510544441794263,
71647.5,13.89999999999418,-0.55,-0.53,0.60,-0.02,0.01,-0.00,42.70555116141226,0.41984003784268603,1.8668682989047687,
71647.6,14.0,-0.52,-0.54,0.63,0.05,0.20,-0.01,42.51795150286523,0.4166401332758505,1.8371163169903852,
71647.7,14.099999999991269,-0.50,-0.55,0.66,0.04,0.16,-0.00,43.4395810292871,0.4103189701574192,1.8617178828437544,
71647.8,14.19999999999709,-0.47,-0.56,0.65,-0.02,-0.01,-0.01,42.47373776817859,0.42086363424210427,1.8542802932933478,
71647.9,14.299999999988358,-0.47,-0.55,0.67,-0.00,-0.02,0.00,43.092905448577035,0.41340816866502456,1.8585567165869825,
71648.1,14.5,-0.46,-0.56,0.66,0.00,-0.00,0.00,42.471227907843684,0.42012034566868534,1.860679808421734,
71648.2,14.599999999991269,-0.47,-0.56,0.65,0.01,0.01,0.01,42.38741558528899,0.42693716094661904,1.90166062534437,
71648.3,14.69999999999709,-0.47,-0.55,0.66,-0.00,0.01,0.01,41.63269628549177,0.44152183108282017,1.8830566798036228,
71648.4,14.799999999988358,-0.46,-0.56,0.66,-0.00,0.02,-0.00,41.51832125700653,0.44743828915833184,1.8652669647988487,
71648.5,14.89999999999418,-0.47,-0.56,0.66,-0.02,-0.04,0.01,42.5920332926241,0.429550105892736,1.8398065655050415,
71648.6,15.0,-0.48,-0.56,0.66,0.01,0.01,-0.00,41.482543316436136,0.449252022684245,1.8594877756220245,
71648.7,15.099999999991269,-0.47,-0.56,0.66,0.00,0.02,-0.01,42.5920332926241,0.429550105892736,1.8398065655050415,
71648.8,15.19999999999709,-0.47,-0.55,0.64,0.00,0.01,0.01,42.86888265397175,0.39089950354258685,1.8737614630900765,
71648.9,15.299999999988358,-0.47,-0.56,0.65,0.00,0.01,0.01,40.709501347965436,0.4343624742269205,1.8661589999134143,
71649.1,15.5,-0.47,-0.56,0.66,-0.01,-0.02,-0.00,43.10922059142336,0.4680905793323888,1.864013204219325,
71649.2,15.599999999991269,-0.47,-0.56,0.66,-0.01,-0.00,-0.01,41.73188349451771,0.43788300336812075,1.8659685975932123,
71649.3,15.69999999999709,-0.48,-0.56,0.66,-0.01,0.01,-0.00,40.86150388813412,0.43212240781057343,1.8604276112128029,
71649.4,15.799999999988358,-0.47,-0.56,0.65,-0.01,0.01,0.00,39.87754882136063,0.41509095870308876,1.858623029222302,
71649.5,15.89999999999418,-0.47,-0.56,0.65,1.41,-0.60,1.18,41.956651439312935,0.3350518043364634,1.8424991985214296,
71649.6,16.0,-0.47,-0.56,0.65,-0.01,0.01,0.01,41.46054268819934,0.20503291199373205,1.9662051545373858,
71649.7,16.09999999999127,-0.46,-0.56,0.64,-0.01,-0.01,0.01,41.73778743536844,0.421333049282259,1.845453587439061,
71649.8,16.19999999999709,-0.11,0.23,0.64,1.68,-1.90,0.73,42.61959408534999,5.818245894677455,2.3217213173632754,
71649.9,16.29999999998836,-0.46,-0.55,0.66,-0.01,-0.02,-0.00,41.783198776541745,0.42269512575769186,1.8471369453879543,
71650.1,16.5,0.15,0.30,0.63,0.08,0.15,-0.45,44.311770445334275,5.351123142911266,2.3383791536593854,
71650.2,16.59999999999127,0.17,0.31,0.64,0.47,-0.25,-0.75,42.85409432014635,5.4234765825406965,2.3815184511829735,
71650.3,16.69999999999709,0.12,0.25,0.57,0.47,-0.02,-0.74,44.87866976638234,5.379291736309437,2.3887457362728894,
71650.4,16.79999999998836,0.11,0.24,0.54,0.43,0.04,-0.68,45.4952755788994,5.410823079967968,2.3438360468328563,
71650.5,16.89999999999418,0.11,0.25,0.53,0.38,0.08,-0.62,44.4739687907432,5.379750173213058,2.393206844752922,
71650.6,17.0,0.11,0.27,0.55,0.31,0.12,-0.57,42.89158891904099,5.392114169989068,2.4045679878654838,
71650.7,17.09999999999127,0.11,0.30,0.56,0.24,0.17,-0.54,44.25047005400056,5.338086615339256,2.4070524508969084,
71650.8,17.19999999999709,0.10,0.33,0.57,-0.14,-0.73,-0.17,43.834747632443374,5.358193474377152,2.3755518303762773,
71650.9,17.29999999998836,0.09,0.34,0.60,0.17,0.20,-0.52,43.182790553645326,5.376249878690492,2.3873094040364657,
71651.1,17.5,0.29,0.42,0.59,-0.46,0.70,-0.25,44.92036175277309,5.416752861720658,2.432074684182235,
71651.2,17.59999999999127,0.11,0.33,0.74,-0.51,0.65,-0.23,44.77066115214292,5.491305753059855,2.390669231608157,
71651.3,17.69999999999709,0.09,0.29,0.69,-0.49,0.67,-0.24,44.02386852606208,5.50867070660243,2.491716957595636,
71651.4,17.79999999998836,0.05,0.27,0.76,-0.73,0.06,0.49,45.07501636161655,5.42164299882036,2.4318250097869063,
71651.5,17.89999999999418,0.04,0.27,0.80,-0.83,0.48,0.34,44.198151545058984,5.434012722534873,2.427154468764952,
71651.6,18.0,-0.00,0.30,0.83,-1.23,0.76,0.34,42.51182188521212,5.672459342790377,2.5883443054313147,
71651.7,18.09999999999127,-0.03,0.36,0.82,-0.32,0.78,-0.24,44.25314791062891,5.434647245067007,2.4161342528138325,
71651.8,18.19999999999709,-0.04,0.38,0.78,-0.24,0.65,-0.13,41.614126207334934,6.11121870403248,2.5020549735869473,
71651.9,18.29999999998836,-0.04,0.40,0.77,-0.20,0.74,0.30,44.303604819472646,5.435308871916175,2.4077453280612047,
71652.1,18.5,-0.36,-0.45,0.92,-1.01,1.29,-0.47,41.75311964392601,0.23294298317258572,2.2743056198351166,
71652.2,18.59999999999127,-0.34,-0.46,0.94,-1.03,1.18,-0.42,41.63465263455431,0.24535485752639238,2.256071736179634,
71652.3,18.69999999999709,-0.35,-0.45,0.93,0.77,1.34,-0.03,41.54777130003485,0.4835846841391574,1.9507725130225815,
71652.4,18.79999999998836,-0.37,-0.43,0.91,-1.01,1.32,-0.51,41.56108035169442,0.25452277717241734,2.2426748931804994,
71652.5,18.89999999999418,-0.37,-0.44,0.89,-1.04,1.02,-0.39,41.71183165481947,0.2703704907538203,2.211689841961262,
71652.6,19.0,-0.36,-0.47,0.89,-1.01,0.64,-0.49,41.573970221762565,0.4344044740195776,1.826123385784309,
71652.7,19.09999999999127,-0.36,-0.47,0.88,-1.01,0.61,-0.51,41.823192130682706,0.27947237066777014,2.1937152881876343,
71652.8,19.19999999999709,-0.50,-0.54,0.66,0.02,0.04,0.01,41.79786956293347,0.4420443221945947,1.8328908522936966,
71652.9,19.29999999998836,-0.37,-0.48,0.88,-0.99,0.58,-0.54,41.25847549292145,0.2897533613307275,2.160078727025044,
71653.1,19.5,-0.50,-0.54,0.64,-0.04,-0.03,-0.01,42.26734082007053,0.4035122112996682,1.8233095684207103,
